#flap type rudder coefficients
ALPHA  CL     CD
#[deg] [-]    [-]
-45  -1.500   2.020
-40  -1.665   1.930
-35  -2.156   1.920
-30  -2.309   1.700
-25  -2.156   1.270
-20  -2.099   1.070
-15  -1.718   0.680
-10  -1.260   0.390
-5   -0.650   0.150
0     0.000   0.090
5     0.650   0.150
10    1.260   0.390
15    1.718   0.680
20    2.099   1.070
25    2.156   1.270
30    2.309   1.700
35    2.156   1.920
40    1.665   1.930
45    1.500   2.020
